# Pulseq sequence file
# Created by BART v0.9.00-1413-g88bade9
# bart seq --FOV 0.256 --BR 256 -r 377 -f 1 --dwell 10e-6 --FA 50 --raga --spoiled --TR 250e-3 --TE 3e-3 samples grad mom pulseq.seq 

[VERSION]
major 1
minor 4
revision 2

[DEFINITIONS]
AdcRasterTime 1e-07
BlockDurationRaster 1e-05
GradientRasterTime 1e-05
RadiofrequencyRasterTime 1e-06
FOV 0.256 0.256 0.006 
PhaseResolution 1.0 
TotalDuration 94.25000


# Format of blocks:
# NUM DUR RF  GX  GY  GZ  ADC  EXT
[BLOCKS]
   1 25000 1 0 1 2 1 1
   2 25000 2 3 4 2 2 2
   3 25000 3 5 6 2 3 3
   4 25000 4 7 8 2 4 4
   5 25000 5 9 10 2 5 5
   6 25000 6 11 12 2 6 6
   7 25000 7 13 14 2 7 7
   8 25000 8 15 16 2 8 8
   9 25000 9 17 18 2 9 9
  10 25000 10 19 20 2 10 10
  11 25000 11 21 22 2 11 11
  12 25000 3 23 24 2 12 12
  13 25000 10 25 26 2 13 13
  14 25000 12 27 28 2 14 14
  15 25000 13 29 30 2 15 15
  16 25000 7 31 32 2 16 16
  17 25000 9 33 34 2 17 17
  18 25000 14 35 36 2 18 18
  19 25000 4 37 38 2 19 19
  20 25000 11 39 40 2 20 20
  21 25000 5 41 42 2 21 21
  22 25000 1 43 44 2 22 22
  23 25000 15 45 46 2 23 23
  24 25000 13 47 48 2 24 24
  25 25000 1 49 50 2 25 25
  26 25000 14 51 52 2 26 26
  27 25000 16 53 54 2 27 27
  28 25000 4 55 56 2 28 28
  29 25000 2 57 58 2 29 29
  30 25000 12 59 60 2 30 30
  31 25000 7 61 62 2 31 31
  32 25000 15 63 64 2 32 32
  33 25000 6 65 66 2 33 33
  34 25000 10 67 68 2 34 34
  35 25000 16 69 70 2 35 35
  36 25000 16 71 72 2 36 36
  37 25000 10 73 74 2 37 37
  38 25000 6 75 76 2 38 38
  39 25000 15 77 78 2 39 39
  40 25000 7 79 80 2 40 40
  41 25000 12 81 82 2 41 41
  42 25000 2 83 84 2 42 42
  43 25000 4 85 86 2 43 43
  44 25000 16 87 88 2 44 44
  45 25000 14 89 90 2 45 45
  46 25000 1 91 92 2 46 46
  47 25000 13 93 94 2 47 47
  48 25000 15 95 96 2 48 48
  49 25000 1 97 98 2 49 49
  50 25000 5 99 100 2 50 50
  51 25000 11 101 102 2 51 51
  52 25000 4 103 104 2 52 52
  53 25000 14 105 106 2 53 53
  54 25000 9 107 108 2 54 54
  55 25000 7 109 110 2 55 55
  56 25000 13 111 112 2 56 56
  57 25000 12 113 114 2 57 57
  58 25000 10 115 116 2 58 58
  59 25000 3 117 118 2 59 59
  60 25000 11 119 120 2 60 60
  61 25000 10 121 122 2 61 61
  62 25000 9 123 124 2 62 62
  63 25000 8 125 126 2 63 63
  64 25000 7 127 128 2 64 64
  65 25000 6 129 130 2 65 65
  66 25000 5 131 132 2 66 66
  67 25000 4 133 134 2 67 67
  68 25000 3 135 136 2 68 68
  69 25000 2 137 138 2 69 69
  70 25000 1 139 140 2 70 70
  71 25000 8 141 142 2 71 71
  72 25000 8 143 144 2 72 72
  73 25000 1 145 146 2 73 73
  74 25000 2 147 148 2 74 74
  75 25000 3 149 150 2 75 75
  76 25000 4 151 152 2 76 76
  77 25000 5 153 154 2 77 77
  78 25000 6 155 156 2 78 78
  79 25000 7 157 158 2 79 79
  80 25000 8 159 160 2 80 80
  81 25000 9 161 162 2 81 81
  82 25000 10 163 164 2 82 82
  83 25000 11 165 166 2 83 83
  84 25000 3 167 168 2 84 84
  85 25000 10 169 170 2 85 85
  86 25000 12 171 172 2 86 86
  87 25000 13 173 174 2 87 87
  88 25000 7 175 176 2 88 88
  89 25000 9 177 178 2 89 89
  90 25000 14 179 180 2 90 90
  91 25000 4 181 182 2 91 91
  92 25000 11 183 184 2 92 92
  93 25000 5 185 186 2 93 93
  94 25000 1 187 188 2 94 94
  95 25000 15 189 190 2 95 95
  96 25000 13 191 192 2 96 96
  97 25000 1 193 194 2 97 97
  98 25000 14 195 196 2 98 98
  99 25000 16 197 198 2 99 99
 100 25000 4 199 200 2 100 100
 101 25000 2 201 202 2 101 101
 102 25000 12 203 204 2 102 102
 103 25000 7 205 206 2 103 103
 104 25000 15 207 208 2 104 104
 105 25000 6 209 210 2 105 105
 106 25000 10 211 212 2 106 106
 107 25000 16 213 214 2 107 107
 108 25000 16 215 216 2 108 108
 109 25000 10 217 218 2 109 109
 110 25000 6 219 220 2 110 110
 111 25000 15 221 222 2 111 111
 112 25000 7 223 224 2 112 112
 113 25000 12 225 226 2 113 113
 114 25000 2 227 228 2 114 114
 115 25000 4 229 230 2 115 115
 116 25000 16 231 232 2 116 116
 117 25000 14 233 234 2 117 117
 118 25000 1 235 236 2 118 118
 119 25000 13 237 238 2 119 119
 120 25000 15 239 240 2 120 120
 121 25000 1 241 242 2 121 121
 122 25000 5 243 244 2 122 122
 123 25000 11 245 246 2 123 123
 124 25000 4 247 248 2 124 124
 125 25000 14 249 250 2 125 125
 126 25000 9 251 252 2 126 126
 127 25000 7 253 254 2 127 127
 128 25000 13 255 256 2 128 128
 129 25000 12 257 258 2 129 129
 130 25000 10 259 260 2 130 130
 131 25000 3 261 262 2 131 131
 132 25000 11 263 264 2 132 132
 133 25000 10 265 266 2 133 133
 134 25000 9 267 268 2 134 134
 135 25000 8 269 270 2 135 135
 136 25000 7 271 272 2 136 136
 137 25000 6 273 274 2 137 137
 138 25000 5 275 276 2 138 138
 139 25000 4 277 278 2 139 139
 140 25000 3 279 280 2 140 140
 141 25000 2 281 282 2 141 141
 142 25000 1 283 284 2 142 142
 143 25000 8 285 286 2 143 143
 144 25000 8 287 288 2 144 144
 145 25000 1 289 290 2 145 145
 146 25000 2 291 292 2 146 146
 147 25000 3 293 294 2 147 147
 148 25000 4 295 296 2 148 148
 149 25000 5 297 298 2 149 149
 150 25000 6 299 300 2 150 150
 151 25000 7 301 302 2 151 151
 152 25000 8 303 304 2 152 152
 153 25000 9 305 306 2 153 153
 154 25000 10 307 308 2 154 154
 155 25000 11 309 310 2 155 155
 156 25000 3 311 312 2 156 156
 157 25000 10 313 314 2 157 157
 158 25000 12 315 316 2 158 158
 159 25000 13 317 318 2 159 159
 160 25000 7 319 320 2 160 160
 161 25000 9 321 322 2 161 161
 162 25000 14 323 324 2 162 162
 163 25000 4 325 326 2 163 163
 164 25000 11 327 328 2 164 164
 165 25000 5 329 330 2 165 165
 166 25000 1 331 332 2 166 166
 167 25000 15 333 334 2 167 167
 168 25000 13 335 336 2 168 168
 169 25000 1 337 338 2 169 169
 170 25000 14 339 340 2 170 170
 171 25000 16 341 342 2 171 171
 172 25000 4 343 344 2 172 172
 173 25000 2 345 346 2 173 173
 174 25000 12 347 348 2 174 174
 175 25000 7 349 350 2 175 175
 176 25000 15 351 352 2 176 176
 177 25000 6 353 354 2 177 177
 178 25000 10 355 356 2 178 178
 179 25000 16 357 358 2 179 179
 180 25000 16 359 360 2 180 180
 181 25000 10 361 362 2 181 181
 182 25000 6 363 364 2 182 182
 183 25000 15 365 366 2 183 183
 184 25000 7 367 368 2 184 184
 185 25000 12 369 370 2 185 185
 186 25000 2 371 372 2 186 186
 187 25000 4 373 374 2 187 187
 188 25000 16 375 376 2 188 188
 189 25000 14 377 378 2 189 189
 190 25000 1 379 378 2 190 190
 191 25000 13 380 376 2 191 191
 192 25000 15 381 374 2 192 192
 193 25000 1 382 372 2 193 193
 194 25000 5 383 370 2 194 194
 195 25000 11 384 368 2 195 195
 196 25000 4 385 366 2 196 196
 197 25000 14 386 364 2 197 197
 198 25000 9 387 362 2 198 198
 199 25000 7 388 360 2 199 199
 200 25000 13 389 358 2 200 200
 201 25000 12 390 356 2 201 201
 202 25000 10 391 354 2 202 202
 203 25000 3 392 352 2 203 203
 204 25000 11 393 350 2 204 204
 205 25000 10 394 348 2 205 205
 206 25000 9 395 346 2 206 206
 207 25000 8 396 344 2 207 207
 208 25000 7 397 342 2 208 208
 209 25000 6 398 340 2 209 209
 210 25000 5 399 338 2 210 210
 211 25000 4 400 336 2 211 211
 212 25000 3 401 334 2 212 212
 213 25000 2 402 332 2 213 213
 214 25000 1 403 330 2 214 214
 215 25000 8 404 328 2 215 215
 216 25000 8 405 326 2 216 216
 217 25000 1 406 324 2 217 217
 218 25000 2 407 322 2 218 218
 219 25000 3 408 320 2 219 219
 220 25000 4 409 318 2 220 220
 221 25000 5 410 316 2 221 221
 222 25000 6 411 314 2 222 222
 223 25000 7 412 312 2 223 223
 224 25000 8 413 310 2 224 224
 225 25000 9 414 308 2 225 225
 226 25000 10 415 306 2 226 226
 227 25000 11 416 304 2 227 227
 228 25000 3 417 302 2 228 228
 229 25000 10 418 300 2 229 229
 230 25000 12 419 298 2 230 230
 231 25000 13 420 296 2 231 231
 232 25000 7 421 294 2 232 232
 233 25000 9 422 292 2 233 233
 234 25000 14 423 290 2 234 234
 235 25000 4 424 288 2 235 235
 236 25000 11 425 286 2 236 236
 237 25000 5 426 284 2 237 237
 238 25000 1 427 282 2 238 238
 239 25000 15 428 280 2 239 239
 240 25000 13 429 278 2 240 240
 241 25000 1 430 276 2 241 241
 242 25000 14 431 274 2 242 242
 243 25000 16 432 272 2 243 243
 244 25000 4 433 270 2 244 244
 245 25000 2 434 268 2 245 245
 246 25000 12 435 266 2 246 246
 247 25000 7 436 264 2 247 247
 248 25000 15 437 262 2 248 248
 249 25000 6 438 260 2 249 249
 250 25000 10 439 258 2 250 250
 251 25000 16 440 256 2 251 251
 252 25000 16 441 254 2 252 252
 253 25000 10 442 252 2 253 253
 254 25000 6 443 250 2 254 254
 255 25000 15 444 248 2 255 255
 256 25000 7 445 246 2 256 256
 257 25000 12 446 244 2 257 257
 258 25000 2 447 242 2 258 258
 259 25000 4 448 240 2 259 259
 260 25000 16 449 238 2 260 260
 261 25000 14 450 236 2 261 261
 262 25000 1 451 234 2 262 262
 263 25000 13 452 232 2 263 263
 264 25000 15 453 230 2 264 264
 265 25000 1 454 228 2 265 265
 266 25000 5 455 226 2 266 266
 267 25000 11 456 224 2 267 267
 268 25000 4 457 222 2 268 268
 269 25000 14 458 220 2 269 269
 270 25000 9 459 218 2 270 270
 271 25000 7 460 216 2 271 271
 272 25000 13 461 214 2 272 272
 273 25000 12 462 212 2 273 273
 274 25000 10 463 210 2 274 274
 275 25000 3 464 208 2 275 275
 276 25000 11 465 206 2 276 276
 277 25000 10 466 204 2 277 277
 278 25000 9 467 202 2 278 278
 279 25000 8 468 200 2 279 279
 280 25000 7 469 198 2 280 280
 281 25000 6 470 196 2 281 281
 282 25000 5 471 194 2 282 282
 283 25000 4 472 192 2 283 283
 284 25000 3 473 190 2 284 284
 285 25000 2 474 188 2 285 285
 286 25000 1 475 186 2 286 286
 287 25000 8 476 184 2 287 287
 288 25000 8 477 182 2 288 288
 289 25000 1 478 180 2 289 289
 290 25000 2 479 178 2 290 290
 291 25000 3 480 176 2 291 291
 292 25000 4 481 174 2 292 292
 293 25000 5 482 172 2 293 293
 294 25000 6 483 170 2 294 294
 295 25000 7 484 168 2 295 295
 296 25000 8 485 166 2 296 296
 297 25000 9 486 164 2 297 297
 298 25000 10 487 162 2 298 298
 299 25000 11 488 160 2 299 299
 300 25000 3 489 158 2 300 300
 301 25000 10 490 156 2 301 301
 302 25000 12 491 154 2 302 302
 303 25000 13 492 152 2 303 303
 304 25000 7 493 150 2 304 304
 305 25000 9 494 148 2 305 305
 306 25000 14 495 146 2 306 306
 307 25000 4 496 144 2 307 307
 308 25000 11 497 142 2 308 308
 309 25000 5 498 140 2 309 309
 310 25000 1 499 138 2 310 310
 311 25000 15 500 136 2 311 311
 312 25000 13 501 134 2 312 312
 313 25000 1 502 132 2 313 313
[RF]
1 841.355821 1 2 0 189 0.000000 0.872665
2 841.355821 1 2 0 189 0.000000 2.617994
3 841.355821 1 2 0 189 0.000000 5.235988
4 841.355821 1 2 0 189 0.000000 2.443461
5 841.355821 1 2 0 189 0.000000 0.523599
6 841.355821 1 2 0 189 0.000000 5.759587
7 841.355821 1 2 0 189 0.000000 5.585054
8 841.355821 1 2 0 189 0.000000 0.000000
9 841.355821 1 2 0 189 0.000000 1.570796
10 841.355821 1 2 0 189 0.000000 4.014257
11 841.355821 1 2 0 189 0.000000 1.047198
12 841.355821 1 2 0 189 0.000000 3.665191
13 841.355821 1 2 0 189 0.000000 4.188790
14 841.355821 1 2 0 189 0.000000 4.712389
15 841.355821 1 2 0 189 0.000000 2.094395
16 841.355821 1 2 0 189 0.000000 3.141593

[SHAPES]

shape_id 1
num_samples 620
0.0000000000
0.0000014131
0.0000059814
0.0000142048
0.0000265792
0.0000436008
0.0000657616
0.0000935515
0.0001274541
0.0001679533
0.0002155216
0.0002706336
0.0003337497
0.0004053290
0.0004858147
0.0005756503
0.0006752686
0.0007850860
0.0009055077
0.0010369426
0.0011797722
0.0013343709
0.0015010959
0.0016802971
0.0018723047
0.0020774298
0.0022959812
0.0025282425
0.0027744772
0.0030349242
0.0033098408
0.0035994020
0.0039038365
0.0042232834
0.0045579178
0.0049078506
0.0052732117
0.0056540598
0.0060504824
0.0064625102
0.0068901489
0.0073334072
0.0077922461
0.0082666101
0.0087564150
0.0092615364
0.0097818673
0.0103172250
0.0108674224
0.0114322724
0.0120114889
0.0126048354
0.0132119898
0.0138326623
0.0144664459
0.0151130175
0.0157719012
0.0164427068
0.0171249453
0.0178181250
0.0185216889
0.0192351285
0.0199578293
0.0206891727
0.0214285348
0.0221752580
0.0229285825
0.0236878283
0.0244522002
0.0252209734
0.0259932540
0.0267682429
0.0275450703
0.0283228196
0.0291005801
0.0298773590
0.0306522362
0.0314241722
0.0321921185
0.0329550467
0.0337118693
0.0344614647
0.0352026932
0.0359344333
0.0366554968
0.0373646356
0.0380606763
0.0387423411
0.0394084118
0.0400575288
0.0406884439
0.0412998237
0.0418903083
0.0424585417
0.0430031344
0.0435227230
0.0440158732
0.0444811657
0.0449171700
0.0453224555
0.0456955247
0.0460349098
0.0463391691
0.0466067679
0.0468362197
0.0470260195
0.0471746512
0.0472806096
0.0473423377
0.0473583490
0.0473270975
0.0472470485
0.0471166670
0.0469344407
0.0466988347
0.0464083292
0.0460613705
0.0456564985
0.0451921597
0.0446668416
0.0440791063
0.0434274115
0.0427103154
0.0419263281
0.0410740152
0.0401519500
0.0391586870
0.0380928405
0.0369530097
0.0357378609
0.0344459414
0.0330760218
0.0316267610
0.0300968699
0.0284850840
0.0267901961
0.0250109378
0.0231461544
0.0211946815
0.0191553980
0.0170271508
0.0148090329
0.0124998214
0.0100986529
0.0076044444
0.0050163534
0.0023334541
0.0004450764
0.0033201640
0.0062924861
0.0093628559
0.0125318617
0.0158002339
0.0191686805
0.0226376392
0.0262076557
0.0298792850
0.0336529762
0.0375289880
0.0415078364
0.0455896482
0.0497748591
0.0540635251
0.0584558398
0.0629519075
0.0675517768
0.0722553879
0.0770628676
0.0819738731
0.0869884789
0.0921062902
0.0973271802
0.1026506275
0.1080763713
0.1136041656
0.1192332283
0.1249632016
0.1307934672
0.1367234141
0.1427521557
0.1488791853
0.1551034302
0.1614242792
0.1678406298
0.1743515283
0.1809558868
0.1876528412
0.1944409311
0.2013192475
0.2082862258
0.2153408825
0.2224815935
0.2297071069
0.2370156944
0.2444060147
0.2518766224
0.2594255805
0.2670514882
0.2747522891
0.2825265825
0.2903720737
0.2982873619
0.3062700033
0.3143185079
0.3224304616
0.3306039274
0.3388366699
0.3471267819
0.3554717004
0.3638694584
0.3723175824
0.3808137178
0.3893555701
0.3979406357
0.4065663218
0.4152302742
0.4239301383
0.4326629937
0.4414264560
0.4502176046
0.4590341151
0.4678728580
0.4767316282
0.4856071174
0.4944969118
0.5033978820
0.5123074055
0.5212224722
0.5301403403
0.5390579104
0.5479723811
0.5568805337
0.5657798648
0.5746669173
0.5835390687
0.5923929811
0.6012259126
0.6100345254
0.6188159585
0.6275672317
0.6362851262
0.6449667215
0.6536088586
0.6622084975
0.6707625389
0.6792680621
0.6877219677
0.6961208582
0.7044622302
0.7127428055
0.7209595442
0.7291093469
0.7371893525
0.7451967001
0.7531282902
0.7609808445
0.7687519789
0.7764385343
0.7840374708
0.7915462255
0.7989619970
0.8062816858
0.8135024905
0.8206219673
0.8276373148
0.8345454931
0.8413442969
0.8480308652
0.8546026945
0.8610574007
0.8673920035
0.8736046553
0.8796924353
0.8856531978
0.8914844990
0.8971843123
0.9027501345
0.9081799388
0.9134714007
0.9186225533
0.9236314297
0.9284957647
0.9332140684
0.9377842546
0.9422044158
0.9464727044
0.9505878687
0.9545478821
0.9583511949
0.9619962573
0.9654818773
0.9688063860
0.9719685912
0.9749671817
0.9778008461
0.9804687500
0.9829694629
0.9853020310
0.9874657989
0.9894595742
0.9912827015
0.9929344654
0.9944142103
0.9957212806
0.9968549609
0.9978151917
0.9986013174
0.9992130399
0.9996501207
0.9999125004
1.0000000000
0.9999125004
0.9996501207
0.9992130399
0.9986013174
0.9978151917
0.9968550205
0.9957212806
0.9944142103
0.9929344654
0.9912827015
0.9894595742
0.9874657989
0.9853021502
0.9829694629
0.9804687500
0.9778008461
0.9749672413
0.9719685912
0.9688063860
0.9654818773
0.9619964361
0.9583511949
0.9545478821
0.9505878687
0.9464730024
0.9422044158
0.9377842546
0.9332140684
0.9284959435
0.9236314297
0.9186225533
0.9134714007
0.9081799388
0.9027501345
0.8971843123
0.8914846182
0.8856531978
0.8796924353
0.8736046553
0.8673921824
0.8610574007
0.8546026945
0.8480308652
0.8413444757
0.8345454931
0.8276373148
0.8206219673
0.8135027885
0.8062816858
0.7989619970
0.7915462255
0.7840376496
0.7764385343
0.7687519789
0.7609808445
0.7531282902
0.7451967001
0.7371893525
0.7291095257
0.7209595442
0.7127428055
0.7044622302
0.6961210966
0.6877219677
0.6792680621
0.6707625389
0.6622086167
0.6536089778
0.6449667215
0.6362851262
0.6275674105
0.6188160777
0.6100345254
0.6012257338
0.5923931003
0.5835390687
0.5746669173
0.5657800436
0.5568807125
0.5479723811
0.5390579104
0.5301404595
0.5212226510
0.5123074055
0.5033978820
0.4944970310
0.4856072068
0.4767316282
0.4678728580
0.4590342045
0.4502178133
0.4414264560
0.4326629937
0.4239302278
0.4152305126
0.4065663218
0.3979404271
0.3893555999
0.3808137178
0.3723175824
0.3638696373
0.3554719090
0.3471267819
0.3388366699
0.3306040168
0.3224304616
0.3143185079
0.3062700033
0.2982874513
0.2903722823
0.2825265825
0.2747522891
0.2670516074
0.2594256699
0.2518766224
0.2444060147
0.2370158136
0.2297071069
0.2224815935
0.2153409868
0.2082863748
0.2013192475
0.1944409311
0.1876529008
0.1809559911
0.1743515283
0.1678406298
0.1614243835
0.1551035792
0.1488791853
0.1427521557
0.1367234737
0.1307935417
0.1249632016
0.1192332283
0.1136042476
0.1080764681
0.1026506275
0.0973270535
0.0921063498
0.0869884789
0.0819738731
0.0770629942
0.0722555146
0.0675517768
0.0629519075
0.0584558919
0.0540635288
0.0497748591
0.0455896482
0.0415078886
0.0375290811
0.0336529762
0.0298792850
0.0262077451
0.0226376429
0.0191686805
0.0158002339
0.0125318998
0.0093628559
0.0062924861
0.0033201275
0.0004451463
0.0023334541
0.0050163534
0.0076043815
0.0100986240
0.0124998214
0.0148090329
0.0170271508
0.0191553477
0.0211946815
0.0231461544
0.0250108913
0.0267901514
0.0284850840
0.0300968699
0.0316267423
0.0330760218
0.0344459414
0.0357378609
0.0369530432
0.0380928479
0.0391586609
0.0401519239
0.0410740152
0.0419263281
0.0427103154
0.0434274115
0.0440791212
0.0446668416
0.0451921411
0.0456564836
0.0460613705
0.0464083292
0.0466988347
0.0469344519
0.0471166894
0.0472470373
0.0473271012
0.0473583601
0.0473423377
0.0472806096
0.0471746512
0.0470260084
0.0468362197
0.0466067679
0.0463391840
0.0460349247
0.0456955247
0.0453224555
0.0449171700
0.0444811694
0.0440158844
0.0435227305
0.0430031382
0.0424585417
0.0418903083
0.0412998237
0.0406884328
0.0400575288
0.0394084081
0.0387423709
0.0380606763
0.0373646356
0.0366554968
0.0359344333
0.0352026932
0.0344614834
0.0337118879
0.0329550654
0.0321921296
0.0314241722
0.0306522362
0.0298773590
0.0291005392
0.0283228438
0.0275450889
0.0267682634
0.0259932540
0.0252209734
0.0244522002
0.0236878134
0.0229285676
0.0221752580
0.0214285720
0.0206891876
0.0199578293
0.0192351285
0.0185216889
0.0178181026
0.0171249602
0.0164427254
0.0157719199
0.0151130175
0.0144664459
0.0138326623
0.0132119898
0.0126048233
0.0120115150
0.0114322864
0.0108674513
0.0103172250
0.0097818673
0.0092615364
0.0087564019
0.0082665998
0.0077922610
0.0073334328
0.0068901563
0.0064625102
0.0060504824
0.0056540598
0.0052731954
0.0049078641
0.0045579197
0.0042232894
0.0039038365
0.0035994020
0.0033098408
0.0030349242
0.0027744719
0.0025282479
0.0022959877
0.0020774349
0.0018723047
0.0016802971
0.0015010959
0.0013343701
0.0011797715
0.0010369474
0.0009055110
0.0007850860
0.0006752686
0.0005756503
0.0004858147
0.0004053256
0.0003337527
0.0002706338
0.0002155245
0.0001679533
0.0001274541
0.0000935515
0.0000657616
0.0000436007
0.0000265811
0.0000142048
0.0000059814
0.0000014131

shape_id 2
num_samples 620
0.5000000000
0.0000000000
0.0000000000
144
-0.5000000000
0.0000000000
0.0000000000
324
0.5000000000
0.0000000000
0.0000000000
143

shape_id 3
num_samples 2
0.0000000000
0.0000000000

shape_id 4
num_samples 486
0.0000000000
0.0000000000
78
0.0001395989
0.0166122743
0.0279197888
0.0279197888
12
0.0219599923
0.0016770892
0.0000000000
0.0000000000
98
-0.0058591101
-0.0261886319
-0.0279197888
-0.0279197888
11
-0.0284293942
-0.0450578956
-0.0530860929
-0.0530860929
4
-0.0265430464
0.0000000000
0.0000000000
254
0.0265430464
0.0530860929
0.0530860929
4
0.0361513208

shape_id 5
num_samples 486
-0.0264470413
-0.0528940826
-0.0528940826
15
-0.0526296122
-0.0214221034
0.0000000000
0.0000000000
58
0.0002654305
0.0315862253
0.0530860929
0.0530860929
15
0.0520645927
0.0323106220
0.0247179381
0.0247179381
12
0.0163721819
0.0003926655
0.0000000000
0.0000000000
86
-0.0024650901
-0.0209330768
-0.0247179381
-0.0247179381
12
-0.0123589690
0.0000000000
0.0000000000
262

shape_id 6
num_samples 486
0.0000000000
0.0000000000
78
-0.0000942998
-0.0112216722
-0.0188599533
-0.0188599533
12
-0.0148340818
-0.0011328819
0.0000000000
0.0000000000
98
0.0039578574
0.0176905485
0.0188599533
0.0188599533
11
0.0192041943
0.0304368280
0.0358599144
0.0358599144
4
0.0179299572
0.0000000000
0.0000000000
254
-0.0179299572
-0.0358599144
-0.0358599144
4
-0.0244203933

shape_id 7
num_samples 486
0.0000000000
0.0000000000
78
-0.0001029341
-0.0122491522
-0.0205868105
-0.0205868105
12
-0.0161923216
-0.0012366110
0.0000000000
0.0000000000
98
0.0043202472
0.0193103324
0.0205868105
0.0205868105
11
0.0209625708
0.0332236882
0.0391433238
0.0391433238
4
0.0195716619
0.0000000000
0.0000000000
254
-0.0195716619
-0.0391433238
-0.0391433238
4
-0.0266563761

shape_id 8
num_samples 486
0.0000000000
0.0000000000
78
0.0001390649
0.0165487240
0.0278129815
0.0278129815
12
0.0218759843
0.0016706734
0.0000000000
0.0000000000
98
-0.0058366961
-0.0260884473
-0.0278129815
-0.0278129815
11
-0.0283206375
-0.0448855265
-0.0528830118
-0.0528830118
4
-0.0264415059
0.0000000000
0.0000000000
254
0.0264415059
0.0528830118
0.0528830118
4
0.0360130238

shape_id 9
num_samples 486
0.0000000000
0.0000000000
78
0.0000121990
0.0014516858
0.0024398080
0.0024398080
12
0.0019190033
0.0001465547
0.0000000000
0.0000000000
98
-0.0005120062
-0.0022885286
-0.0024398080
-0.0024398080
11
-0.0024843406
-0.0039374444
-0.0046389991
-0.0046389991
4
-0.0023194996
0.0000000000
0.0000000000
254
0.0023194996
0.0046389991
0.0046389991
4
0.0031591315

shape_id 10
num_samples 486
0.0000000000
0.0000000000
78
-0.0001107808
-0.0131829139
-0.0221561578
-0.0221561578
12
-0.0174266739
-0.0013308787
0.0000000000
0.0000000000
98
0.0046495828
0.0207823729
0.0221561578
0.0221561578
11
0.0225605626
0.0357563538
0.0421272474
0.0421272474
4
0.0210636237
0.0000000000
0.0000000000
254
-0.0210636237
-0.0421272474
-0.0421272474
4
-0.0286884107

shape_id 11
num_samples 486
0.0000000000
0.0000000000
78
0.0000849440
0.0101083352
0.0169887986
0.0169887986
12
0.0133623463
0.0010204852
0.0000000000
0.0000000000
98
-0.0035651861
-0.0159354140
-0.0169887986
-0.0169887986
11
-0.0172988863
-0.0274170955
-0.0323021405
-0.0323021405
4
-0.0161510703
0.0000000000
0.0000000000
254
0.0161510703
0.0323021405
0.0323021405
4
0.0219975700

shape_id 12
num_samples 486
0.0000000000
0.0000000000
78
0.0000243047
0.0028922647
0.0048609491
0.0048609491
12
0.0038233242
0.0002919881
0.0000000000
0.0000000000
98
-0.0010200950
-0.0045595476
-0.0048609491
-0.0048609491
11
-0.0049496735
-0.0078447634
-0.0092425052
-0.0092425052
4
-0.0046212526
0.0000000000
0.0000000000
254
0.0046212526
0.0092425052
0.0092425052
4
0.0062940924

shape_id 13
num_samples 486
0.0000000000
0.0000000000
78
-0.0001374669
-0.0163585593
-0.0274933770
-0.0274933770
12
-0.0216246030
-0.0016514754
0.0000000000
0.0000000000
98
0.0057696254
0.0257886597
0.0274933770
0.0274933770
11
0.0279951994
0.0443697380
0.0522753226
0.0522753226
4
0.0261376613
0.0000000000
0.0000000000
254
-0.0261376613
-0.0522753226
-0.0522753226
4
-0.0355991910

shape_id 14
num_samples 486
0.0000000000
0.0000000000
78
0.0000749383
0.0089176592
0.0149876625
0.0149876625
12
0.0117883755
0.0009002807
0.0000000000
0.0000000000
98
-0.0031452374
-0.0140583576
-0.0149876625
-0.0149876625
11
-0.0152612245
-0.0241875946
-0.0284972228
-0.0284972228
4
-0.0142486114
0.0000000000
0.0000000000
254
0.0142486114
0.0284972228
0.0284972228
4
0.0194064432

shape_id 15
num_samples 486
0.0000000000
0.0000000000
78
0.0001177799
0.0140158130
0.0235559882
0.0235559882
12
0.0185276946
0.0014149639
0.0000000000
0.0000000000
98
-0.0049433443
-0.0220954073
-0.0235559882
-0.0235559882
11
-0.0239859434
-0.0380154472
-0.0447888552
-0.0447888552
4
-0.0223944276
0.0000000000
0.0000000000
254
0.0223944276
0.0447888552
0.0447888552
4
0.0305009502

shape_id 16
num_samples 486
0.0000000000
0.0000000000
78
-0.0001348171
-0.0160432352
-0.0269634205
-0.0269634205
12
-0.0212077717
-0.0016196419
0.0000000000
0.0000000000
98
0.0056584114
0.0252915629
0.0269634205
0.0269634205
11
0.0274555698
0.0435144763
0.0512676745
0.0512676745
4
0.0256338373
0.0000000000
0.0000000000
254
-0.0256338373
-0.0512676745
-0.0512676745
4
-0.0349129885

shape_id 17
num_samples 486
0.0000000000
0.0000000000
78
-0.0000362245
-0.0043107149
-0.0072448990
-0.0072448990
12
-0.0056983929
-0.0004351874
0.0000000000
0.0000000000
98
0.0015203790
0.0067956815
0.0072448990
0.0072448990
11
0.0073771364
0.0116920620
0.0137752969
0.0137752969
4
0.0068876484
0.0000000000
0.0000000000
254
-0.0068876484
-0.0137752969
-0.0137752969
4
-0.0093808972

shape_id 18
num_samples 486
0.0000000000
0.0000000000
78
0.0001238780
0.0147414770
0.0247755916
0.0247755916
12
0.0194869598
0.0014882231
0.0000000000
0.0000000000
98
-0.0051992843
-0.0232393896
-0.0247755916
-0.0247755916
11
-0.0252278076
-0.0399836843
-0.0471077831
-0.0471077831
4
-0.0235538916
0.0000000000
0.0000000000
254
0.0235538916
0.0471077831
0.0471077831
4
0.0320801266

shape_id 19
num_samples 486
0.0000000000
0.0000000000
78
-0.0000643593
-0.0076587541
-0.0128718556
-0.0128718556
12
-0.0101242116
-0.0007731881
0.0000000000
0.0000000000
98
0.0027012246
0.0120737407
0.0128718556
0.0128718556
11
0.0131067989
0.0207730342
0.0244742727
0.0244742727
4
0.0122371363
0.0000000000
0.0000000000
254
-0.0122371363
-0.0244742727
-0.0244742727
4
-0.0166668375

shape_id 20
num_samples 486
0.0000000000
0.0000000000
78
-0.0000478671
-0.0056961838
-0.0095734181
-0.0095734181
12
-0.0075298631
-0.0005750572
0.0000000000
0.0000000000
98
0.0020090306
0.0089798216
0.0095734181
0.0095734181
11
0.0097481567
0.0154499046
0.0182026937
0.0182026937
4
0.0091013468
0.0000000000
0.0000000000
254
-0.0091013468
-0.0182026937
-0.0182026937
4
-0.0123959286

shape_id 21
num_samples 486
0.0000000000
0.0000000000
78
0.0001311358
0.0156051642
0.0262271666
0.0262271666
12
0.0206286796
0.0015754165
0.0000000000
0.0000000000
98
-0.0055039047
-0.0246009603
-0.0262271666
-0.0262271666
11
-0.0267058775
-0.0423262851
-0.0498677772
-0.0498677772
4
-0.0249338886
0.0000000000
0.0000000000
254
0.0249338886
0.0498677772
0.0498677772
4
0.0339596665

shape_id 22
num_samples 486
0.0000000000
0.0000000000
78
-0.0000532878
-0.0063412519
-0.0106575661
-0.0106575661
12
-0.0083825874
-0.0006401799
0.0000000000
0.0000000000
98
0.0022365446
0.0099967475
0.0106575661
0.0106575661
11
0.0108520932
0.0171995393
0.0202640697
0.0202640697
4
0.0101320349
0.0000000000
0.0000000000
254
-0.0101320349
-0.0202640697
-0.0202640697
4
-0.0137997137

shape_id 23
num_samples 486
0.0000000000
0.0000000000
78
-0.0001290282
-0.0153543539
-0.0258056368
-0.0258056368
12
-0.0202971301
-0.0015500960
0.0000000000
0.0000000000
98
0.0054154445
0.0242055672
0.0258056368
0.0258056368
11
0.0262766537
0.0416460059
0.0490662892
0.0490662892
4
0.0245331446
0.0000000000
0.0000000000
254
-0.0245331446
-0.0490662892
-0.0490662892
4
-0.0334138579

shape_id 24
num_samples 486
0.0000000000
0.0000000000
78
0.0001264512
0.0150476979
0.0252902486
0.0252902486
12
0.0198917574
0.0015191376
0.0000000000
0.0000000000
98
-0.0053072877
-0.0237221355
-0.0252902486
-0.0252902486
11
-0.0257518584
-0.0408142552
-0.0480863411
-0.0480863411
4
-0.0240431706
0.0000000000
0.0000000000
254
0.0240431706
0.0480863411
0.0480863411
4
0.0327465189

shape_id 25
num_samples 486
0.0000000000
0.0000000000
78
0.0000591435
0.0070380711
0.0118286909
0.0118286909
12
0.0093037223
0.0007105272
0.0000000000
0.0000000000
98
-0.0024823111
-0.0110952571
-0.0118286909
-0.0118286909
11
-0.0120445939
-0.0190895399
-0.0224908215
-0.0224908215
4
-0.0112454108
0.0000000000
0.0000000000
254
0.0112454108
0.0224908215
0.0224908215
4
0.0153161188

shape_id 26
num_samples 486
0.0000000000
0.0000000000
78
-0.0001331912
-0.0158497545
-0.0266382429
-0.0266382429
12
-0.0209520070
-0.0016001091
0.0000000000
0.0000000000
98
0.0055901712
0.0249865479
0.0266382429
0.0266382429
11
0.0271244569
0.0429896937
0.0506493887
0.0506493887
4
0.0253246944
0.0000000000
0.0000000000
254
-0.0253246944
-0.0506493887
-0.0506493887
4
-0.0344919395

shape_id 27
num_samples 486
0.0000000000
0.0000000000
78
0.0000418087
0.0049752327
0.0083617356
0.0083617356
12
0.0065768280
0.0005022737
0.0000000000
0.0000000000
98
-0.0017547529
-0.0078432690
-0.0083617356
-0.0083617356
11
-0.0085143580
-0.0134944505
-0.0158988262
-0.0158988262
4
-0.0079494131
0.0000000000
0.0000000000
254
0.0079494131
0.0158988262
0.0158988262
4
0.0108270083

shape_id 28
num_samples 486
0.0000000000
0.0000000000
78
0.0000699673
0.0083261101
0.0139934624
0.0139934624
12
0.0110063987
0.0008405609
0.0000000000
0.0000000000
98
-0.0029365995
-0.0131258026
-0.0139934624
-0.0139934624
11
-0.0142488778
-0.0225831210
-0.0266068720
-0.0266068720
4
-0.0133034360
0.0000000000
0.0000000000
254
0.0133034360
0.0266068720
0.0266068720
4
0.0181191252

shape_id 29
num_samples 486
0.0000000000
0.0000000000
78
-0.0001207992
-0.0143751017
-0.0241598347
-0.0241598347
12
-0.0190026432
-0.0014512358
0.0000000000
0.0000000000
98
0.0050700646
0.0226618126
0.0241598347
0.0241598347
11
0.0246008117
0.0389899552
0.0459369962
0.0459369962
4
0.0229684981
0.0000000000
0.0000000000
254
-0.0229684981
-0.0459369962
-0.0459369962
4
-0.0312828275

shape_id 30
num_samples 486
0.0000000000
0.0000000000
78
0.0000300096
0.0035711479
0.0060019293
0.0060019293
12
0.0047207492
0.0003605246
0.0000000000
0.0000000000
98
-0.0012595355
-0.0056297817
-0.0060019293
-0.0060019293
11
-0.0061114794
-0.0096861157
-0.0114119408
-0.0114119408
4
-0.0057059704
0.0000000000
0.0000000000
254
0.0057059704
0.0114119408
0.0114119408
4
0.0077714654

shape_id 31
num_samples 486
0.0000000000
0.0000000000
78
0.0001363352
0.0162238886
0.0272670396
0.0272670396
12
0.0214465799
0.0016378797
0.0000000000
0.0000000000
98
-0.0057221274
-0.0255763563
-0.0272670396
-0.0272670396
11
-0.0277647308
-0.0440044671
-0.0518449695
-0.0518449695
4
-0.0259224848
0.0000000000
0.0000000000
254
0.0259224848
0.0518449695
0.0518449695
4
0.0353061230

shape_id 32
num_samples 486
0.0000000000
0.0000000000
78
-0.0001142229
-0.0135925214
-0.0228445738
-0.0228445738
12
-0.0179681397
-0.0013722305
0.0000000000
0.0000000000
98
0.0047940504
0.0214281039
0.0228445738
0.0228445738
11
0.0232615440
0.0368673428
0.0434361870
